Time(s),CH1V,CH2V,CH3V
-3.520000e-08,-3.733333e-04,-1.120000e-03,1.965333e-02
-3.515000e-08,-5.333333e-05,-1.653333e-03,2.362667e-02
-3.510000e-08,3.200000e-04,-2.266667e-03,2.725333e-02
-3.505000e-08,5.333333e-04,-2.746667e-03,3.056000e-02
-3.500000e-08,8.266667e-04,-3.333333e-03,3.357333e-02
-3.495000e-08,1.066667e-03,-3.760000e-03,3.602667e-02
-3.490000e-08,1.306667e-03,-4.266667e-03,3.821333e-02
-3.485000e-08,1.413333e-03,-4.720000e-03,4.000000e-02
-3.480000e-08,1.626667e-03,-5.200000e-03,4.122667e-02
-3.475000e-08,1.706667e-03,-5.520000e-03,4.208000e-02
-3.470000e-08,1.920000e-03,-5.973333e-03,4.242667e-02
-3.465000e-08,2.000000e-03,-6.240000e-03,4.232000e-02
-3.460000e-08,2.000000e-03,-6.320000e-03,4.168000e-02
-3.455000e-08,2.053333e-03,-6.533333e-03,4.069333e-02
-3.450000e-08,2.000000e-03,-6.533333e-03,3.920000e-02
-3.445000e-08,2.053333e-03,-6.506667e-03,3.738667e-02
-3.440000e-08,1.973333e-03,-6.400000e-03,3.509333e-02
-3.435000e-08,1.866667e-03,-6.266667e-03,3.237333e-02
-3.430000e-08,1.680000e-03,-5.920000e-03,2.938667e-02
-3.425000e-08,1.573333e-03,-5.600000e-03,2.600000e-02
-3.420000e-08,1.280000e-03,-5.040000e-03,2.242667e-02
-3.415000e-08,1.013333e-03,-4.480000e-03,1.858667e-02
-3.410000e-08,8.800000e-04,-3.920000e-03,1.453333e-02
-3.405000e-08,5.066667e-04,-3.146667e-03,1.026667e-02
-3.400000e-08,2.133333e-04,-2.426667e-03,6.026667e-03
-3.395000e-08,-1.066667e-04,-1.520000e-03,1.546667e-03
-3.390000e-08,-4.800000e-04,-6.400000e-04,-2.880000e-03
-3.385000e-08,-9.600000e-04,2.666667e-04,-7.146667e-03
-3.380000e-08,-1.306667e-03,1.146667e-03,-1.152000e-02
-3.375000e-08,-1.786667e-03,2.160000e-03,-1.568000e-02
-3.370000e-08,-2.133333e-03,2.933333e-03,-1.968000e-02
-3.365000e-08,-2.560000e-03,3.840000e-03,-2.349333e-02
-3.360000e-08,-3.093333e-03,4.853333e-03,-2.712000e-02
-3.355000e-08,-3.493333e-03,5.573333e-03,-3.037333e-02
-3.350000e-08,-3.946667e-03,6.373333e-03,-3.333334e-02
-3.345000e-08,-4.320000e-03,7.066667e-03,-3.586667e-02
-3.340000e-08,-4.773333e-03,7.706667e-03,-3.810667e-02
-3.335000e-08,-5.173333e-03,8.133333e-03,-4.002666e-02
-3.330000e-08,-5.600000e-03,8.613333e-03,-4.141333e-02
-3.325000e-08,-5.920000e-03,8.906666e-03,-4.245333e-02
-3.320000e-08,-6.400000e-03,9.200000e-03,-4.298666e-02
-3.315000e-08,-6.746667e-03,9.333333e-03,-4.312000e-02
-3.310000e-08,-6.933333e-03,9.253333e-03,-4.282667e-02
-3.305000e-08,-7.306667e-03,9.226667e-03,-4.216000e-02
-3.300000e-08,-7.493333e-03,9.013333e-03,-4.098667e-02
-3.295000e-08,-7.706667e-03,8.773333e-03,-3.960000e-02
-3.290000e-08,-7.893333e-03,8.426666e-03,-3.773334e-02
-3.285000e-08,-8.133333e-03,7.973333e-03,-3.538667e-02
-3.280000e-08,-8.186666e-03,7.413333e-03,-3.290667e-02
-3.275000e-08,-8.293333e-03,6.933333e-03,-3.002667e-02
-3.270000e-08,-8.240000e-03,6.186666e-03,-2.693333e-02
-3.265000e-08,-8.240000e-03,5.546667e-03,-2.362667e-02
-3.260000e-08,-8.266667e-03,4.986667e-03,-2.018667e-02
-3.255000e-08,-8.133333e-03,4.186667e-03,-1.648000e-02
-3.250000e-08,-8.026667e-03,3.546667e-03,-1.274667e-02
-3.245000e-08,-7.786667e-03,2.880000e-03,-8.853333e-03
-3.240000e-08,-7.573333e-03,2.240000e-03,-4.986667e-03
-3.235000e-08,-7.333333e-03,1.546667e-03,-1.200000e-03
-3.230000e-08,-7.066667e-03,1.040000e-03,2.640000e-03
-3.225000e-08,-6.666667e-03,4.800000e-04,6.320000e-03
-3.220000e-08,-6.426667e-03,8.000000e-05,9.973333e-03
-3.215000e-08,-6.053333e-03,-2.933333e-04,1.341333e-02
-3.210000e-08,-5.493333e-03,-7.200000e-04,1.664000e-02
-3.205000e-08,-5.120000e-03,-9.600000e-04,1.965333e-02
-3.200000e-08,-4.640000e-03,-1.173333e-03,2.250667e-02
-3.195000e-08,-4.133333e-03,-1.253333e-03,2.490667e-02
-3.190000e-08,-3.626667e-03,-1.333333e-03,2.709333e-02
-3.185000e-08,-3.200000e-03,-1.360000e-03,2.906667e-02
-3.180000e-08,-2.613333e-03,-1.386667e-03,3.058667e-02
-3.175000e-08,-2.160000e-03,-1.280000e-03,3.181333e-02
-3.170000e-08,-1.546667e-03,-1.306667e-03,3.266667e-02
-3.165000e-08,-1.040000e-03,-1.226667e-03,3.317333e-02
-3.160000e-08,-6.133333e-04,-1.013333e-03,3.325333e-02
-3.155000e-08,-8.000000e-05,-9.866667e-04,3.306667e-02
-3.150000e-08,3.200000e-04,-8.266667e-04,3.245333e-02
-3.145000e-08,8.266667e-04,-7.733333e-04,3.160000e-02
-3.140000e-08,1.226667e-03,-7.200000e-04,3.034667e-02
-3.135000e-08,1.546667e-03,-7.733333e-04,2.872000e-02
-3.130000e-08,1.813333e-03,-7.733333e-04,2.688000e-02
-3.125000e-08,2.106667e-03,-8.800000e-04,2.469333e-02
-3.120000e-08,2.160000e-03,-9.333334e-04,2.237333e-02
-3.115000e-08,2.266667e-03,-1.093333e-03,1.973333e-02
-3.110000e-08,2.453333e-03,-1.413333e-03,1.690667e-02
-3.105000e-08,2.320000e-03,-1.653333e-03,1.389333e-02
-3.100000e-08,2.266667e-03,-2.026667e-03,1.080000e-02
-3.095000e-08,2.106667e-03,-2.346667e-03,7.466667e-03
-3.090000e-08,1.840000e-03,-2.800000e-03,4.160000e-03
-3.085000e-08,1.413333e-03,-3.280000e-03,9.066667e-04
-3.080000e-08,1.040000e-03,-3.840000e-03,-2.506667e-03
-3.075000e-08,5.333333e-04,-4.266667e-03,-5.786667e-03
-3.070000e-08,5.333333e-05,-4.986667e-03,-9.013333e-03
-3.065000e-08,-5.600000e-04,-5.573333e-03,-1.216000e-02
-3.060000e-08,-1.333333e-03,-6.000000e-03,-1.520000e-02
-3.055000e-08,-2.026667e-03,-6.693333e-03,-1.800000e-02
-3.050000e-08,-2.880000e-03,-7.173333e-03,-2.069333e-02
-3.045000e-08,-3.626667e-03,-7.733333e-03,-2.301333e-02
-3.040000e-08,-4.453333e-03,-8.240000e-03,-2.517333e-02
-3.035000e-08,-5.360000e-03,-8.800000e-03,-2.712000e-02
-3.030000e-08,-6.266667e-03,-9.173334e-03,-2.866667e-02
-3.025000e-08,-7.066667e-03,-9.600000e-03,-2.997333e-02
-3.020000e-08,-8.080000e-03,-9.813333e-03,-3.088000e-02
-3.015000e-08,-8.933334e-03,-1.005333e-02,-3.149333e-02
-3.010000e-08,-9.680000e-03,-1.032000e-02,-3.173333e-02
-3.005000e-08,-1.053333e-02,-1.040000e-02,-3.170667e-02
-3.000000e-08,-1.122667e-02,-1.048000e-02,-3.122667e-02
-2.995000e-08,-1.189333e-02,-1.034667e-02,-3.056000e-02
-2.990000e-08,-1.253333e-02,-1.026667e-02,-2.946667e-02
-2.985000e-08,-1.314667e-02,-1.005333e-02,-2.797333e-02
-2.980000e-08,-1.357333e-02,-9.866667e-03,-2.629333e-02
-2.975000e-08,-1.397333e-02,-9.466667e-03,-2.421333e-02
-2.970000e-08,-1.418667e-02,-9.226667e-03,-2.192000e-02
-2.965000e-08,-1.437333e-02,-8.773333e-03,-1.933333e-02
-2.960000e-08,-1.456000e-02,-8.160000e-03,-1.664000e-02
-2.955000e-08,-1.453333e-02,-7.706667e-03,-1.360000e-02
-2.950000e-08,-1.448000e-02,-7.093333e-03,-1.050667e-02
-2.945000e-08,-1.424000e-02,-6.480000e-03,-7.146667e-03
-2.940000e-08,-1.400000e-02,-5.840000e-03,-3.760000e-03
-2.935000e-08,-1.368000e-02,-5.253333e-03,-3.733333e-04
-2.930000e-08,-1.330667e-02,-4.560000e-03,3.120000e-03
-2.925000e-08,-1.277333e-02,-3.893333e-03,6.560000e-03
-2.920000e-08,-1.240000e-02,-3.093333e-03,1.005333e-02
-2.915000e-08,-1.181333e-02,-2.426667e-03,1.338667e-02
-2.910000e-08,-1.109333e-02,-1.813333e-03,1.658667e-02
-2.905000e-08,-1.053333e-02,-1.093333e-03,1.962667e-02
-2.900000e-08,-9.840000e-03,-4.800000e-04,2.256000e-02
-2.895000e-08,-9.173334e-03,2.666667e-04,2.509333e-02
-2.890000e-08,-8.506667e-03,8.800000e-04,2.749333e-02
-2.885000e-08,-7.920000e-03,1.493333e-03,2.968000e-02
-2.880000e-08,-7.226666e-03,2.000000e-03,3.141333e-02
-2.875000e-08,-6.640000e-03,2.613333e-03,3.290667e-02
-2.870000e-08,-5.946666e-03,2.960000e-03,3.402667e-02
-2.865000e-08,-5.360000e-03,3.413333e-03,3.474667e-02
-2.860000e-08,-4.880000e-03,3.946667e-03,3.506667e-02
-2.855000e-08,-4.320000e-03,4.213333e-03,3.509333e-02
-2.850000e-08,-3.866667e-03,4.613333e-03,3.464000e-02
-2.845000e-08,-3.386667e-03,4.906666e-03,3.386667e-02
-2.840000e-08,-2.986667e-03,5.120000e-03,3.269333e-02
-2.835000e-08,-2.640000e-03,5.226667e-03,3.109333e-02
-2.830000e-08,-2.373333e-03,5.440000e-03,2.920000e-02
-2.825000e-08,-2.026667e-03,5.493333e-03,2.690667e-02
-2.820000e-08,-1.920000e-03,5.626667e-03,2.440000e-02
-2.815000e-08,-1.760000e-03,5.653333e-03,2.154667e-02
-2.810000e-08,-1.493333e-03,5.573333e-03,1.837333e-02
-2.805000e-08,-1.440000e-03,5.546667e-03,1.498667e-02
-2.800000e-08,-1.280000e-03,5.413333e-03,1.146667e-02
-2.795000e-08,-1.200000e-03,5.333333e-03,7.653333e-03
-2.790000e-08,-1.146667e-03,5.200000e-03,3.760000e-03
-2.785000e-08,-1.173333e-03,5.013333e-03,-1.066667e-04
-2.780000e-08,-1.120000e-03,4.746667e-03,-4.186667e-03
-2.775000e-08,-1.120000e-03,4.586667e-03,-8.160000e-03
-2.770000e-08,-1.013333e-03,4.186667e-03,-1.216000e-02
-2.765000e-08,-1.013333e-03,3.920000e-03,-1.605333e-02
-2.760000e-08,-1.066667e-03,3.733333e-03,-1.989333e-02
-2.755000e-08,-1.013333e-03,3.333333e-03,-2.354667e-02
-2.750000e-08,-1.040000e-03,3.040000e-03,-2.701333e-02
-2.745000e-08,-9.333334e-04,2.720000e-03,-3.018667e-02
-2.740000e-08,-9.066667e-04,2.373333e-03,-3.317333e-02
-2.735000e-08,-8.800000e-04,1.973333e-03,-3.589333e-02
-2.730000e-08,-8.800000e-04,1.680000e-03,-3.824000e-02
-2.725000e-08,-7.466667e-04,1.280000e-03,-4.029333e-02
-2.720000e-08,-8.266667e-04,1.066667e-03,-4.192000e-02
-2.715000e-08,-7.733333e-04,7.200000e-04,-4.320000e-02
-2.710000e-08,-6.133333e-04,3.733333e-04,-4.410667e-02
-2.705000e-08,-6.400000e-04,1.066667e-04,-4.464000e-02
-2.700000e-08,-5.600000e-04,-2.133333e-04,-4.466667e-02
-2.695000e-08,-5.066667e-04,-4.000000e-04,-4.440000e-02
-2.690000e-08,-4.533333e-04,-6.400000e-04,-4.368000e-02
-2.685000e-08,-5.066667e-04,-8.533333e-04,-4.245333e-02
-2.680000e-08,-4.266667e-04,-1.120000e-03,-4.098667e-02
-2.675000e-08,-4.533333e-04,-1.226667e-03,-3.904000e-02
-2.670000e-08,-3.466667e-04,-1.520000e-03,-3.677333e-02
-2.665000e-08,-3.466667e-04,-1.680000e-03,-3.416000e-02
-2.660000e-08,-4.266667e-04,-1.680000e-03,-3.130667e-02
-2.655000e-08,-4.000000e-04,-1.866667e-03,-2.808000e-02
-2.650000e-08,-4.800000e-04,-1.893333e-03,-2.466667e-02
-2.645000e-08,-4.266667e-04,-1.973333e-03,-2.090667e-02
-2.640000e-08,-5.066667e-04,-2.026667e-03,-1.709333e-02
-2.635000e-08,-5.600000e-04,-2.160000e-03,-1.314667e-02
-2.630000e-08,-6.933333e-04,-2.133333e-03,-9.013333e-03
-2.625000e-08,-7.466667e-04,-2.160000e-03,-4.933333e-03
-2.620000e-08,-1.013333e-03,-2.080000e-03,-7.466667e-04
-2.615000e-08,-1.146667e-03,-2.000000e-03,3.360000e-03
-2.610000e-08,-1.200000e-03,-2.026667e-03,7.360000e-03
-2.605000e-08,-1.493333e-03,-1.946667e-03,1.122667e-02
-2.600000e-08,-1.680000e-03,-1.920000e-03,1.496000e-02
-2.595000e-08,-1.893333e-03,-1.760000e-03,1.834667e-02
-2.590000e-08,-2.160000e-03,-1.653333e-03,2.157333e-02
-2.585000e-08,-2.506667e-03,-1.573333e-03,2.458667e-02
-2.580000e-08,-2.746667e-03,-1.466667e-03,2.712000e-02
-2.575000e-08,-3.066667e-03,-1.280000e-03,2.938667e-02
-2.570000e-08,-3.280000e-03,-1.306667e-03,3.120000e-02
-2.565000e-08,-3.573333e-03,-1.200000e-03,3.258667e-02
-2.560000e-08,-3.920000e-03,-9.600000e-04,3.349333e-02
-2.555000e-08,-4.186667e-03,-9.333334e-04,3.405333e-02
-2.550000e-08,-4.480000e-03,-7.466667e-04,3.408000e-02
-2.545000e-08,-4.640000e-03,-6.666667e-04,3.373333e-02
-2.540000e-08,-4.826667e-03,-5.600000e-04,3.290667e-02
-2.535000e-08,-4.986667e-03,-5.333333e-04,3.152000e-02
-2.530000e-08,-5.120000e-03,-4.266667e-04,2.981333e-02
-2.525000e-08,-5.093333e-03,-3.733333e-04,2.765333e-02
-2.520000e-08,-5.200000e-03,-1.866667e-04,2.514667e-02
-2.515000e-08,-5.146666e-03,-1.333333e-04,2.226667e-02
-2.510000e-08,-4.880000e-03,-1.333333e-04,1.904000e-02
-2.505000e-08,-4.720000e-03,-2.666667e-05,1.549333e-02
-2.500000e-08,-4.320000e-03,0.000000e+00,1.181333e-02
-2.495000e-08,-3.893333e-03,1.600000e-04,7.760000e-03
-2.490000e-08,-3.413333e-03,2.133333e-04,3.653333e-03
-2.485000e-08,-2.880000e-03,3.466667e-04,-5.066667e-04
-2.480000e-08,-2.133333e-03,4.000000e-04,-4.826667e-03
-2.475000e-08,-1.360000e-03,5.866667e-04,-9.093333e-03
-2.470000e-08,-4.266667e-04,5.866667e-04,-1.333333e-02
-2.465000e-08,5.333333e-04,7.466667e-04,-1.749333e-02
-2.460000e-08,1.466667e-03,1.066667e-03,-2.157333e-02
-2.455000e-08,2.613333e-03,1.173333e-03,-2.538667e-02
-2.450000e-08,3.706667e-03,1.466667e-03,-2.901333e-02
-2.445000e-08,4.933333e-03,1.733333e-03,-3.229333e-02
-2.440000e-08,6.080000e-03,2.053333e-03,-3.533333e-02
-2.435000e-08,7.253333e-03,2.320000e-03,-3.810667e-02
-2.430000e-08,8.346667e-03,2.746667e-03,-4.042667e-02
-2.425000e-08,9.546666e-03,3.120000e-03,-4.242667e-02
-2.420000e-08,1.045333e-02,3.600000e-03,-4.389333e-02
-2.415000e-08,1.144000e-02,4.053333e-03,-4.501333e-02
-2.410000e-08,1.240000e-02,4.453333e-03,-4.573333e-02
-2.405000e-08,1.306667e-02,4.986667e-03,-4.602667e-02
-2.400000e-08,1.373333e-02,5.440000e-03,-4.581333e-02
-2.395000e-08,1.421333e-02,6.000000e-03,-4.528000e-02
-2.390000e-08,1.456000e-02,6.426667e-03,-4.426667e-02
-2.385000e-08,1.464000e-02,6.853333e-03,-4.272000e-02
-2.380000e-08,1.466667e-02,7.226666e-03,-4.093333e-02
-2.375000e-08,1.448000e-02,7.626667e-03,-3.869333e-02
-2.370000e-08,1.418667e-02,7.786667e-03,-3.616000e-02
-2.365000e-08,1.368000e-02,7.973333e-03,-3.328000e-02
-2.360000e-08,1.296000e-02,8.213333e-03,-3.016000e-02
-2.355000e-08,1.218667e-02,8.133333e-03,-2.672000e-02
-2.350000e-08,1.120000e-02,8.080000e-03,-2.312000e-02
-2.345000e-08,1.026667e-02,7.893333e-03,-1.922667e-02
-2.340000e-08,9.146667e-03,7.573333e-03,-1.528000e-02
-2.335000e-08,7.973333e-03,7.040000e-03,-1.128000e-02
-2.330000e-08,6.720000e-03,6.560000e-03,-7.120000e-03
-2.325000e-08,5.626667e-03,5.840000e-03,-3.013333e-03
-2.320000e-08,4.346667e-03,5.146666e-03,1.146667e-03
-2.315000e-08,3.226667e-03,4.293333e-03,5.200000e-03
-2.310000e-08,2.293333e-03,3.253333e-03,9.173334e-03
-2.305000e-08,1.333333e-03,2.266667e-03,1.293333e-02
-2.300000e-08,6.133333e-04,1.146667e-03,1.661333e-02
-2.295000e-08,0.000000e+00,1.333333e-04,1.992000e-02
-2.290000e-08,-4.000000e-04,-9.600000e-04,2.306667e-02
-2.285000e-08,-6.666667e-04,-2.000000e-03,2.600000e-02
-2.280000e-08,-5.866667e-04,-3.066667e-03,2.848000e-02
-2.275000e-08,-4.000000e-04,-3.893333e-03,3.069333e-02
-2.270000e-08,1.333333e-04,-4.826667e-03,3.253333e-02
-2.265000e-08,8.533333e-04,-5.520000e-03,3.400000e-02
-2.260000e-08,1.653333e-03,-5.893333e-03,3.496000e-02
-2.255000e-08,2.773333e-03,-6.293333e-03,3.565333e-02
-2.250000e-08,3.973333e-03,-6.346667e-03,3.584000e-02
-2.245000e-08,5.440000e-03,-6.213333e-03,3.573333e-02
-2.240000e-08,6.960000e-03,-5.813333e-03,3.512000e-02
-2.235000e-08,8.506667e-03,-5.226667e-03,3.405333e-02
-2.230000e-08,1.008000e-02,-4.240000e-03,3.266667e-02
-2.225000e-08,1.173333e-02,-3.093333e-03,3.085333e-02
-2.220000e-08,1.317333e-02,-1.600000e-03,2.877333e-02
-2.215000e-08,1.458667e-02,8.000000e-05,2.626667e-02
-2.210000e-08,1.600000e-02,1.893333e-03,2.344000e-02
-2.205000e-08,1.704000e-02,4.026667e-03,2.032000e-02
-2.200000e-08,1.794667e-02,6.213333e-03,1.701333e-02
-2.195000e-08,1.856000e-02,8.640000e-03,1.336000e-02
-2.190000e-08,1.893333e-02,1.106667e-02,9.600000e-03
-2.185000e-08,1.890667e-02,1.352000e-02,5.760000e-03
-2.180000e-08,1.866667e-02,1.586667e-02,1.706667e-03
-2.175000e-08,1.805333e-02,1.826667e-02,-2.320000e-03
-2.170000e-08,1.717333e-02,2.034667e-02,-6.426667e-03
-2.165000e-08,1.597333e-02,2.226667e-02,-1.048000e-02
-2.160000e-08,1.434667e-02,2.410667e-02,-1.453333e-02
-2.155000e-08,1.258667e-02,2.541333e-02,-1.842667e-02
-2.150000e-08,1.053333e-02,2.650667e-02,-2.218667e-02
-2.145000e-08,8.400000e-03,2.717333e-02,-2.570667e-02
-2.140000e-08,6.080000e-03,2.741333e-02,-2.904000e-02
-2.135000e-08,3.680000e-03,2.712000e-02,-3.218667e-02
-2.130000e-08,1.200000e-03,2.650667e-02,-3.496000e-02
-2.125000e-08,-1.066667e-03,2.536000e-02,-3.746667e-02
-2.120000e-08,-3.440000e-03,2.384000e-02,-3.954666e-02
-2.115000e-08,-5.520000e-03,2.181333e-02,-4.133333e-02
-2.110000e-08,-7.226666e-03,1.933333e-02,-4.269333e-02
-2.105000e-08,-8.826667e-03,1.658667e-02,-4.370667e-02
-2.100000e-08,-9.946667e-03,1.346667e-02,-4.421333e-02
-2.095000e-08,-1.072000e-02,1.021333e-02,-4.445333e-02
-2.090000e-08,-1.101333e-02,6.720000e-03,-4.418667e-02
-2.085000e-08,-1.090667e-02,3.146667e-03,-4.338667e-02
-2.080000e-08,-1.021333e-02,-5.066667e-04,-4.234667e-02
-2.075000e-08,-9.120000e-03,-3.920000e-03,-4.077333e-02
-2.070000e-08,-7.413333e-03,-7.360000e-03,-3.888000e-02
-2.065000e-08,-5.306667e-03,-1.042667e-02,-3.658667e-02
-2.060000e-08,-2.853333e-03,-1.304000e-02,-3.397333e-02
-2.055000e-08,8.000000e-05,-1.541333e-02,-3.096000e-02
-2.050000e-08,3.306667e-03,-1.714667e-02,-2.770667e-02
-2.045000e-08,6.880000e-03,-1.834667e-02,-2.410667e-02
-2.040000e-08,1.053333e-02,-1.893333e-02,-2.029333e-02
-2.035000e-08,1.429333e-02,-1.890667e-02,-1.637333e-02
-2.030000e-08,1.802667e-02,-1.808000e-02,-1.221333e-02
-2.025000e-08,2.181333e-02,-1.666667e-02,-8.000000e-03
-2.020000e-08,2.520000e-02,-1.445333e-02,-3.626667e-03
-2.015000e-08,2.840000e-02,-1.162667e-02,7.200000e-04
-2.010000e-08,3.130667e-02,-8.266667e-03,5.040000e-03
-2.005000e-08,3.357333e-02,-4.266667e-03,9.253333e-03
-2.000000e-08,3.541333e-02,1.600000e-04,1.346667e-02
-1.995000e-08,3.661333e-02,5.066667e-03,1.736000e-02
-1.990000e-08,3.709333e-02,1.021333e-02,2.112000e-02
-1.985000e-08,3.685333e-02,1.546667e-02,2.472000e-02
-1.980000e-08,3.600000e-02,2.074667e-02,2.794667e-02
-1.975000e-08,3.426667e-02,2.608000e-02,3.090667e-02
-1.970000e-08,3.189333e-02,3.096000e-02,3.349333e-02
-1.965000e-08,2.880000e-02,3.562666e-02,3.570667e-02
-1.960000e-08,2.493333e-02,3.992000e-02,3.746667e-02
-1.955000e-08,2.056000e-02,4.341333e-02,3.888000e-02
-1.950000e-08,1.565333e-02,4.629333e-02,3.978667e-02
-1.945000e-08,1.037333e-02,4.837333e-02,4.034667e-02
-1.940000e-08,4.720000e-03,4.957333e-02,4.040000e-02
-1.935000e-08,-1.146667e-03,4.973333e-02,3.989333e-02
-1.930000e-08,-7.146667e-03,4.906667e-02,3.904000e-02
-1.925000e-08,-1.293333e-02,4.730667e-02,3.770667e-02
-1.920000e-08,-1.874667e-02,4.464000e-02,3.600000e-02
-1.915000e-08,-2.410667e-02,4.098667e-02,3.381334e-02
-1.910000e-08,-2.890667e-02,3.634667e-02,3.128000e-02
-1.905000e-08,-3.333334e-02,3.096000e-02,2.832000e-02
-1.900000e-08,-3.696000e-02,2.488000e-02,2.509333e-02
-1.895000e-08,-3.978667e-02,1.824000e-02,2.144000e-02
-1.890000e-08,-4.173333e-02,1.106667e-02,1.760000e-02
-1.885000e-08,-4.277333e-02,3.600000e-03,1.365333e-02
-1.880000e-08,-4.269333e-02,-4.000000e-03,9.360000e-03
-1.875000e-08,-4.160000e-02,-1.146667e-02,4.986667e-03
-1.870000e-08,-3.936000e-02,-1.890667e-02,5.066667e-04
-1.865000e-08,-3.610667e-02,-2.584000e-02,-4.000000e-03
-1.860000e-08,-3.192000e-02,-3.210667e-02,-8.586667e-03
-1.855000e-08,-2.664000e-02,-3.781333e-02,-1.301333e-02
-1.850000e-08,-2.045333e-02,-4.250666e-02,-1.744000e-02
-1.845000e-08,-1.338667e-02,-4.624000e-02,-2.160000e-02
-1.840000e-08,-5.706667e-03,-4.880000e-02,-2.570667e-02
-1.835000e-08,2.533333e-03,-5.018667e-02,-2.957333e-02
-1.830000e-08,1.117333e-02,-5.013333e-02,-3.317333e-02
-1.825000e-08,2.021333e-02,-4.880000e-02,-3.645333e-02
-1.820000e-08,2.912000e-02,-4.605334e-02,-3.936000e-02
-1.815000e-08,3.808000e-02,-4.197333e-02,-4.194667e-02
-1.810000e-08,4.685333e-02,-3.664000e-02,-4.416000e-02
-1.805000e-08,5.501333e-02,-3.000000e-02,-4.597333e-02
-1.800000e-08,6.261333e-02,-2.224000e-02,-4.728000e-02
-1.795000e-08,6.936000e-02,-1.341333e-02,-4.829333e-02
-1.790000e-08,7.512000e-02,-3.840000e-03,-4.874667e-02
-1.785000e-08,7.962666e-02,6.400000e-03,-4.866667e-02
-1.780000e-08,8.296000e-02,1.709333e-02,-4.824000e-02
-1.775000e-08,8.469333e-02,2.810667e-02,-4.728000e-02
-1.770000e-08,8.493333e-02,3.898667e-02,-4.592000e-02
-1.765000e-08,8.338667e-02,4.973333e-02,-4.408000e-02
-1.760000e-08,7.997333e-02,6.013333e-02,-4.192000e-02
-1.755000e-08,7.472000e-02,6.965333e-02,-3.922667e-02
-1.750000e-08,6.749333e-02,7.832000e-02,-3.624000e-02
-1.745000e-08,5.834667e-02,8.576000e-02,-3.282667e-02
-1.740000e-08,4.706667e-02,9.178667e-02,-2.917333e-02
-1.735000e-08,3.376000e-02,9.618667e-02,-2.530667e-02
-1.730000e-08,1.837333e-02,9.888000e-02,-2.112000e-02
-1.725000e-08,1.093333e-03,9.949333e-02,-1.680000e-02
-1.720000e-08,-1.826667e-02,9.808000e-02,-1.224000e-02
-1.715000e-08,-3.946667e-02,9.440000e-02,-7.680000e-03
-1.710000e-08,-6.234667e-02,8.829334e-02,-3.066667e-03
-1.705000e-08,-8.709333e-02,7.984000e-02,1.493333e-03
-1.700000e-08,-1.133600e-01,6.898667e-02,6.106667e-03
